#Parameters = {dr=0.2; gap=0.6; h_cu=0.035; r_ext=2.6; wr=0.6; x=0.76; y=6; z=6}
#"Frequency / GHz"	"S1,1 [Magnitude]"
#------------------------------------
4.0000000000000	-31.198683083276
4.0040001869202	-31.196301697870
4.0079998970032	-31.192910050735
4.0120000839233	-31.185949447223
4.0159997940063	-31.176245030172
4.0199999809265	-31.166958664002
4.0240001678467	-31.160386362802
4.0279998779297	-31.155685575243
4.0320000648499	-31.149694426418
4.0359997749329	-31.140031568397
4.0399999618530	-31.127462768869
4.0440001487732	-31.115286762618
4.0479998588562	-31.106343329645
4.0520000457764	-31.100523679709
4.0560002326965	-31.095108398817
4.0599999427795	-31.087542047897
4.0640001296997	-31.077932497560
4.0679998397827	-31.068931111729
4.0720000267029	-31.063074586264
4.0760002136230	-31.060253334240
4.0799999237061	-31.057663088890
4.0840001106262	-31.052296443408
4.0879998207092	-31.043608078377
4.0920000076294	-31.033812144805
4.0960001945496	-31.025595915074
4.0999999046326	-31.019493397156
4.1040000915527	-31.013431443903
4.1079998016357	-31.004842638335
4.1119999885559	-30.993289385493
4.1160001754761	-30.981050994016
4.1199998855591	-30.971125538279
4.1240000724792	-30.964570539854
4.1279997825623	-30.959688605628
4.1319999694824	-30.953782753419
4.1360001564026	-30.945756512476
4.1399998664856	-30.937080017177
4.1440000534058	-30.930214879137
4.1479997634888	-30.926071945235
4.1519999504089	-30.922955923019
4.1560001373291	-30.918016291221
4.1599998474121	-30.909801510400
4.1640000343323	-30.899516591969
4.1680002212524	-30.889782768817
4.1719999313354	-30.882149685614
4.1760001182556	-30.875741612212
4.1799998283386	-30.868286527379
4.1840000152588	-30.858495993008
4.1880002021790	-30.847478800143
4.1919999122620	-30.837824968119
4.1960000991821	-30.831240355089
4.1999998092651	-30.827010431399
4.2039999961853	-30.822708005185
4.2080001831055	-30.816458282112
4.2119998931885	-30.808591013583
4.2160000801086	-30.801129761283
4.2199997901917	-30.795650396533
4.2239999771118	-30.791613615967
4.2280001640320	-30.786766416866
4.2319998741150	-30.779217811301
4.2360000610352	-30.769209338993
4.2399997711182	-30.758884402917
4.2439999580383	-30.750301986491
4.2480001449585	-30.743596469917
4.2519998550415	-30.737043611714
4.2560000419617	-30.728878779710
4.2600002288818	-30.719128901410
4.2639999389648	-30.709669465523
4.2680001258850	-30.702479117070
4.2719998359680	-30.697762610533
4.2760000228882	-30.693745391675
4.2800002098083	-30.688308843373
4.2839999198914	-30.680899617664
4.2880001068115	-30.672906134022
4.2919998168945	-30.666168622655
4.2960000038147	-30.661103883667
4.3000001907349	-30.656228125984
4.3039999008179	-30.649552415888
4.3080000877380	-30.640472792441
4.3119997978210	-30.630374530221
4.3159999847412	-30.621352786283
4.3200001716614	-30.614311521530
4.3239998817444	-30.608239573143
4.3280000686646	-30.601322424184
4.3319997787476	-30.592789396886
4.3359999656677	-30.583716411619
4.3400001525879	-30.576017444850
4.3439998626709	-30.570608584525
4.3480000495911	-30.566506113144
4.3520002365112	-30.561709746629
4.3559999465942	-30.555017399225
4.3600001335144	-30.547048227306
4.3639998435974	-30.539511870841
4.3680000305176	-30.533466848087
4.3720002174377	-30.528254000212
4.3759999275208	-30.522117500032
4.3800001144409	-30.513916716195
4.3839998245239	-30.504265368256
4.3880000114441	-30.495015430560
4.3920001983643	-30.487588451675
4.3959999084473	-30.481743026895
4.4000000953674	-30.475932919983
4.4039998054504	-30.468877425294
4.4079999923706	-30.460824746780
4.4120001792908	-30.453294229053
4.4159998893738	-30.447564751199
4.4200000762939	-30.443377844218
4.4239997863770	-30.439091128433
4.4279999732971	-30.433143076116
4.4320001602173	-30.425432213472
4.4359998703003	-30.417306021794
4.4400000572205	-30.410200386285
4.4439997673035	-30.404256163046
4.4479999542236	-30.398229859053
4.4520001411438	-30.390767685550
4.4559998512268	-30.381800672462
4.4600000381470	-30.372707186032
4.4640002250671	-30.365094683755
4.4679999351501	-30.359356215044
4.4720001220703	-30.354380677207
4.4759998321533	-30.348649828288
4.4800000190735	-30.341684012953
4.4840002059937	-30.334434179127
4.4879999160767	-30.328272988440
4.4920001029968	-30.323581071329
4.4959998130798	-30.319284854853
4.5000000000000	-30.313804011129
4.5040001869202	-30.306492312061
4.5079998970032	-30.298204121912
4.5120000839233	-30.290454529309
4.5159997940063	-30.283992935741
4.5199999809265	-30.278156591574
4.5240001678467	-30.271595114016
4.5279998779297	-30.263657497208
4.5320000648499	-30.255090818404
4.5359997749329	-30.247383612588
4.5399999618530	-30.241384397324
4.5440001487732	-30.236521195654
4.5479998588562	-30.231356373029
4.5520000457764	-30.224932356785
4.5560002326965	-30.217628205513
4.5599999427795	-30.210716922607
4.5640001296997	-30.205066517536
4.5679998397827	-30.200249680352
4.5720000267029	-30.194912890804
4.5760002136230	-30.188043654146
4.5799999237061	-30.179927799447
4.5840001106262	-30.171872701868
4.5879998207092	-30.164986633796
4.5920000076294	-30.159166930854
4.5960001945496	-30.153279120957
4.5999999046326	-30.146306044046
4.6040000915527	-30.138384838763
4.6079998016357	-30.130702289640
4.6119999885559	-30.124384164093
4.6160001754761	-30.119424580042
4.6199998855591	-30.114690738071
4.6240000724792	-30.108977310938
4.6279997825623	-30.102114457692
4.6319999694824	-30.095058252905
4.6360001564026	-30.088905695248
4.6399998664856	-30.083790657463
4.6440000534058	-30.078719729960
4.6479997634888	-30.072505212706
4.6519999504089	-30.064903973787
4.6560001373291	-30.056849611523
4.6599998474121	-30.049592169473
4.6640000343323	-30.043547679830
4.6680002212524	-30.037968433398
4.6719999313354	-30.031726472921
4.6760001182556	-30.024446942957
4.6799998283386	-30.016896441582
4.6840000152588	-30.010254925708
4.6880002021790	-30.004985183293
4.6919999122620	-30.000367349782
4.6960000991821	-29.995160420876
4.6999998092651	-29.988740362789
4.7039999961853	-29.981632387096
4.7080001831055	-29.974953279354
4.7119998931885	-29.969293117614
4.7160000801086	-29.964136641218
4.7199997901917	-29.958358083187
4.7239999771118	-29.951320320657
4.7280001640320	-29.943514753676
4.7319998741150	-29.936123942012
4.7360000610352	-29.929937169422
4.7399997711182	-29.924645015584
4.7439999580383	-29.919185800868
4.7480001449585	-29.912791331132
4.7519998550415	-29.905725898381
4.7560000419617	-29.899015742013
4.7600002288818	-29.893439054106
4.7639999389648	-29.888743585695
4.7680001258850	-29.883853076293
4.7719998359680	-29.877866696116
4.7760000228882	-29.870873458085
4.7800002098083	-29.863842301773
4.7839999198914	-29.857675196575
4.7880001068115	-29.852342623357
4.7919998168945	-29.846946302033
4.7960000038147	-29.840597909634
4.8000001907349	-29.833318929098
4.8039999008179	-29.826032808901
4.8080000877380	-29.819712950826
4.8119997978210	-29.814475422948
4.8159999847412	-29.809485851884
4.8200001716614	-29.803765730737
4.8239998817444	-29.797125631291
4.8280000686646	-29.790318696730
4.8319997787476	-29.784296212374
4.8359999656677	-29.779262960803
4.8400001525879	-29.774470038594
4.8439998626709	-29.768911379107
4.8480000495911	-29.762275160076
4.8520002365112	-29.755234025422
4.8559999465942	-29.748790650564
4.8600001335144	-29.743327401808
4.8639998435974	-29.738256598481
4.8680000305176	-29.732609295948
4.8720002174377	-29.725978152551
4.8759999275208	-29.718926818903
4.8800001144409	-29.712451699435
4.8839998245239	-29.707035275143
4.8880000114441	-29.702196738535
4.8920001983643	-29.696945514790
4.8959999084473	-29.690734823827
4.9000000953674	-29.683965478846
4.9039998054504	-29.677584305863
4.9079999923706	-29.672164968833
4.9120001792908	-29.667341869841
4.9159998893738	-29.662163319484
4.9200000762939	-29.655999167355
4.9239997863770	-29.649138250175
4.9279999732971	-29.642515807057
4.9320001602173	-29.636814937737
4.9359998703003	-29.631829483126
4.9400000572205	-29.626673265533
4.9439997673035	-29.620643609433
4.9479999542236	-29.613901986996
4.9520001411438	-29.607319621803
4.9559998512268	-29.601639185073
4.9600000381470	-29.596764750464
4.9640002250671	-29.591853411129
4.9679999351501	-29.586119765748
4.9720001220703	-29.579577881187
4.9759998321533	-29.573020958693
4.9800000190735	-29.567250581878
4.9840002059937	-29.562302688522
4.9879999160767	-29.557422517428
4.9920001029968	-29.551790598400
4.9959998130798	-29.545308901415
5.0000000000000	-29.538700786864
5.0040001869202	-29.532813253425
5.0079998970032	-29.527811143772
5.0120000839233	-29.523020138322
5.0159997940063	-29.517579256135
5.0199999809265	-29.511261742985
5.0240001678467	-29.504681002547
5.0279998779297	-29.498705730511
5.0320000648499	-29.493610322919
5.0359997749329	-29.488822722983
5.0399999618530	-29.483473498232
5.0440001487732	-29.477234565380
5.0479998588562	-29.470637084752
5.0520000457764	-29.464564672536
5.0560002326965	-29.459413793701
5.0599999427795	-29.454720955360
5.0640001296997	-29.449614414352
5.0679998397827	-29.443650758246
5.0720000267029	-29.437233125210
5.0760002136230	-29.431217843359
5.0799999237061	-29.426076651204
5.0840001106262	-29.421442819687
5.0879998207092	-29.416447926789
5.0920000076294	-29.410554527526
5.0960001945496	-29.404060569794
5.0999999046326	-29.397815158557
5.1040000915527	-29.392403181086
5.1079998016357	-29.387593618243
5.1119999885559	-29.382585329348
5.1160001754761	-29.376772751161
5.1199998855591	-29.370358604011
5.1240000724792	-29.364150412045
5.1279997825623	-29.358801539141
5.1319999694824	-29.354185711145
5.1360001564026	-29.349515239547
5.1399998664856	-29.344092994053
5.1440000534058	-29.337965457880
5.1479997634888	-29.331866927694
5.1519999504089	-29.326488658294
5.1560001373291	-29.321811796749
5.1599998474121	-29.317109769115
5.1640000343323	-29.311641223799
5.1680002212524	-29.305363491813
5.1719999313354	-29.298970357145
5.1760001182556	-29.293238174323
5.1799998283386	-29.288298905746
5.1840000152588	-29.283528222100
5.1880002021790	-29.278165959179
5.1919999122620	-29.272069462046
5.1960000991821	-29.265850212532
5.1999998092651	-29.260306869993
5.2039999961853	-29.255650917120
5.2080001831055	-29.251302604144
5.2119998931885	-29.246433253358
5.2160000801086	-29.240742870276
5.2199997901917	-29.234721704481
5.2239999771118	-29.229152234493
5.2280001640320	-29.224340303556
5.2319998741150	-29.219803330981
5.2360000610352	-29.214723366604
5.2399997711182	-29.208739112567
5.2439999580383	-29.202300838470
5.2480001449585	-29.196254217063
5.2519998550415	-29.191061431585
5.2560000419617	-29.186386452954
5.2600002288818	-29.181448726539
5.2639999389648	-29.175799982381
5.2680001258850	-29.169766898920
5.2719998359680	-29.164144172513
5.2760000228882	-29.159420395331
5.2800002098083	-29.155287189498
5.2839999198914	-29.150911598757
5.2880001068115	-29.145692185021
5.2919998168945	-29.139801092279
5.2960000038147	-29.133988513655
5.3000001907349	-29.128834322120
5.3039999008179	-29.124189019990
5.3080000877380	-29.119315431115
5.3119997978210	-29.113626457161
5.3159999847412	-29.107275565346
5.3200001716614	-29.101052634708
5.3239998817444	-29.095666588068
5.3280000686646	-29.091103178532
5.3319997787476	-29.086670672684
5.3359999656677	-29.081672808522
5.3400001525879	-29.076079378738
5.3439998626709	-29.070529486691
5.3480000495911	-29.065692149298
5.3520002365112	-29.061574610725
5.3559999465942	-29.057470505183
5.3600001335144	-29.052598040497
5.3639998435974	-29.046808332815
5.3680000305176	-29.040720310044
5.3720002174377	-29.035110578388
5.3759999275208	-29.030187632240
5.3800001144409	-29.025421817846
5.3839998245239	-29.020090915406
5.3880000114441	-29.014023315437
5.3920001983643	-29.007806681928
5.3959999084473	-29.002264751330
5.4000000953674	-28.997697042714
5.4039998054504	-28.993601202763
5.4079999923706	-28.989157575505
5.4120001792908	-28.983994002243
5.4159998893738	-28.978514818006
5.4200000762939	-28.973476375924
5.4239997863770	-28.969214674395
5.4279999732971	-28.965281528519
5.4320001602173	-28.960840582638
5.4359998703003	-28.955444106538
5.4400000572205	-28.949452502164
5.4439997673035	-28.943695686954
5.4479999542236	-28.938680746139
5.4520001411438	-28.934144893699
5.4559998512268	-28.929332193259
5.4600000381470	-28.923759159088
5.4640002250671	-28.917718505281
5.4679999351501	-28.912029798319
5.4720001220703	-28.907271258421
5.4759998321533	-28.903242656768
5.4800000190735	-28.899142834535
5.4840002059937	-28.894330814516
5.4879999160767	-28.888907443948
5.4920001029968	-28.883589409440
5.4959998130798	-28.878974432569
5.5000000000000	-28.874932770552
5.5040001869202	-28.870695621653
5.5079998970032	-28.865568368071
5.5120000839233	-28.859594640493
5.5159997940063	-28.853524120194
5.5199999809265	-28.848118576744
5.5240001678467	-28.843460280377
5.5279998779297	-28.838921690317
5.5320000648499	-28.833815065301
5.5359997749329	-28.828103135067
5.5399999618530	-28.822474853277
5.5440001487732	-28.817702869996
5.5479998588562	-28.813899071594
5.5520000457764	-28.810388225753
5.5560002326965	-28.806308677969
5.5599999427795	-28.801381922897
5.5640001296997	-28.796125694938
5.5679998397827	-28.791291159328
5.5720000267029	-28.787090522923
5.5760002136230	-28.782955999488
5.5799999237061	-28.778074712097
5.5840001106262	-28.772182187857
5.5879998207092	-28.765856616517
5.5920000076294	-28.760027611478
5.5960001945496	-28.755144328051
5.5999999046326	-28.750820391982
5.6040000915527	-28.746255883284
5.6079998016357	-28.741056509504
5.6119999885559	-28.735627490403
5.6160001754761	-28.730786516954
5.6199998855591	-28.726942490095
5.6240000724792	-28.723648679441
5.6279997825623	-28.719964912804
5.6319999694824	-28.715281288485
5.6360001564026	-28.709855404541
5.6399998664856	-28.704509371531
5.6440000534058	-28.699825119975
5.6479997634888	-28.695575066093
5.6519999504089	-28.690973507971
5.6560001373291	-28.685469919922
5.6599998474121	-28.679345100088
5.6640000343323	-28.673512053973
5.6680002212524	-28.668701098787
5.6719999313354	-28.664806265516
5.6760001182556	-28.661013594851
5.6799998283386	-28.656582819441
5.6840000152588	-28.651545334068
5.6880002021790	-28.646639140502
5.6919999122620	-28.642545260805
5.6960000991821	-28.639171826040
5.6999998092651	-28.635676509669
5.7039999961853	-28.631217905840
5.7080001831055	-28.625729325819
5.7119998931885	-28.619969362733
5.7160000801086	-28.614795600464
5.7199997901917	-28.610366978336
5.7239999771118	-28.606025424604
5.7280001640320	-28.600972231052
5.7319998741150	-28.595106606833
5.7360000610352	-28.589170233175
5.7399997711182	-28.584100994138
5.7439999580383	-28.580161567059
5.7480001449585	-28.576699787995
5.7519998550415	-28.572777951460
5.7560000419617	-28.568049453262
5.7600002288818	-28.563062588288
5.7639999389648	-28.558689853845
5.7680001258850	-28.555229535970
5.7719998359680	-28.552058293302
5.7760000228882	-28.548163978148
5.7800002098083	-28.543084414918
5.7839999198914	-28.537317446174
5.7880001068115	-28.531857430453
5.7919998168945	-28.527242822415
5.7960000038147	-28.523080847662
5.8000001907349	-28.518463620879
5.8039999008179	-28.512911486264
5.8080000877380	-28.506897846157
5.8119997978210	-28.501467001319
5.8159999847412	-28.497274287917
5.8200001716614	-28.493978748543
5.8239998817444	-28.490564898146
5.8280000686646	-28.486284420933
5.8319997787476	-28.481334330200
5.8359999656677	-28.476610005265
5.8400001525879	-28.472766468892
5.8439998626709	-28.469519201723
5.8480000495911	-28.465845366312
5.8520002365112	-28.460926687329
5.8559999465942	-28.454935583047
5.8600001335144	-28.448897898487
5.8639998435974	-28.443760978547
5.8680000305176	-28.439555563200
5.8720002174377	-28.435437351015
5.8759999275208	-28.430583202200
5.8800001144409	-28.425053539712
5.8839998245239	-28.419792865745
5.8880000114441	-28.415743267479
5.8920001983643	-28.412922432449
5.8959999084473	-28.410347908627
5.9000000953674	-28.406895217025
5.9039998054504	-28.402299864763
5.9079999923706	-28.397325327898
5.9120001792908	-28.392957360698
5.9159998893738	-28.389395133300
5.9200000762939	-28.385824758459
5.9239997863770	-28.381193110301
5.9279999732971	-28.375268896238
5.9320001602173	-28.368933951738
5.9359998703003	-28.363430136905
5.9400000572205	-28.359252837348
5.9439997673035	-28.355739155857
5.9479999542236	-28.351761969419
5.9520001411438	-28.346844711400
5.9559998512268	-28.341630076208
5.9600000381470	-28.337252484208
5.9640002250671	-28.334189059134
5.9679999351501	-28.331729260289
5.9720001220703	-28.328558451775
5.9759998321533	-28.323953912761
5.9800000190735	-28.318427035726
5.9840002059937	-28.313206640488
5.9879999160767	-28.309042240627
5.9920001029968	-28.305491053608
5.9959998130798	-28.301361041477
6.0000000000000	-28.295909045312
6.0040001869202	-28.289630104804
6.0079998970032	-28.283864605364
6.0120000839233	-28.279574712443
6.0159997940063	-28.276458275457
6.0199999809265	-28.273256824266
6.0240001678467	-28.268965397141
6.0279998779297	-28.263798102945
6.0320000648499	-28.258967518613
6.0359997749329	-28.255479015993
6.0399999618530	-28.253095342321
6.0440001487732	-28.250489483280
6.0479998588562	-28.246446911621
6.0520000457764	-28.240998184280
6.0560002326965	-28.235370922126
6.0599999427795	-28.230807462494
6.0640001296997	-28.227367061753
6.0679998397827	-28.223881570285
6.0720000267029	-28.219107648790
6.0760002136230	-28.212991488174
6.0799999237061	-28.206812600651
6.0840001106262	-28.202026849988
6.0879998207092	-28.198919283191
6.0920000076294	-28.196346907887
6.0960001945496	-28.192836880812
6.0999999046326	-28.187990718579
6.1040000915527	-28.182853975807
6.1079998016357	-28.178865396492
6.1119999885559	-28.176391792745
6.1160001754761	-28.174269092494
6.1199998855591	-28.170822773222
6.1240000724792	-28.165420277108
6.1279997825623	-28.159067153031
6.1319999694824	-28.153467806222
6.1360001564026	-28.149406799109
6.1399998664856	-28.146047930049
6.1440000534058	-28.141790044903
6.1479997634888	-28.135909176245
6.1519999504089	-28.129373896478
6.1560001373291	-28.124020567636
6.1599998474121	-28.120846342375
6.1640000343323	-28.119038201837
6.1680002212524	-28.116704605669
6.1719999313354	-28.112623465218
6.1760001182556	-28.107360851079
6.1799998283386	-28.102649319864
6.1840000152588	-28.099629317056
6.1880002021790	-28.097629826040
6.1919999122620	-28.094716033175
6.1960000991821	-28.089501013070
6.1999998092651	-28.082524442549
6.2039999961853	-28.075810617023
6.2080001831055	-28.071024032084
6.2119998931885	-28.067930579572
6.2160000801086	-28.064690125530
6.2199997901917	-28.059692269422
6.2239999771118	-28.053200097212
6.2280001640320	-28.047178552524
6.2319998741150	-28.043427056323
6.2360000610352	-28.041793467624
6.2399997711182	-28.040208646137
6.2439999580383	-28.036560813207
6.2480001449585	-28.030664778413
6.2519998550415	-28.024416575054
6.2560000419617	-28.019928808742
6.2600002288818	-28.017448762000
6.2639999389648	-28.015050203951
6.2680001258850	-28.010466489796
6.2719998359680	-28.003334566507
6.2760000228882	-27.995678341188
6.2800002098083	-27.990068164747
6.2839999198914	-27.987210999255
6.2880001068115	-27.985267053702
6.2919998168945	-27.981602169726
6.2960000038147	-27.975357097609
6.3000001907349	-27.968345675135
6.3039999008179	-27.963339212524
6.3080000877380	-27.961356971615
6.3119997978210	-27.960546898493
6.3159999847412	-27.957834997243
6.3200001716614	-27.951818812381
6.3239998817444	-27.944152643339
6.3280000686646	-27.937990374704
